MTS25	Tensile stress
-0.0001	-1.2856
0.0009	-0.4897
0.004	2.0526
0.0072	4.2717
0.0092	5.8094
0.0106	6.8065
0.0129	8.6712
0.0154	10.5219
0.0172	11.6514
0.0189	13.2512
0.0214	14.916
0.0229	15.8911
0.0255	18.2072
0.0277	19.839
0.0288	20.5836
0.0306	21.9046
0.0331	23.4774
0.0352	25.7189
0.0368	26.7314
0.039	27.8781
0.0412	29.5927
0.0428	31.2042
0.0456	32.8673
0.0468	33.9826
0.0482	34.8493
0.0503	36.5949
0.0529	38.4709
0.0544	39.4218
0.0563	40.462
0.0586	42.9571
0.0602	43.8194
0.0624	45.2747
0.0648	46.9217
0.0658	47.8826
0.0674	49.0328
0.0698	50.8586
0.0719	52.272
0.0732	53.2809
0.0752	55.0993
0.0775	56.5149
0.0791	57.336
0.0817	59.5169
0.0831	60.4827
0.0844	61.387
0.0864	62.91
0.0889	64.8042
0.0904	65.4948
0.0919	67.3761
0.0944	68.685
0.0962	69.8893
0.0982	71.3556
0.1003	72.9668
0.1014	73.6359
0.103	75.0122
0.1052	76.6235
0.1074	78.0715
0.1087	79.3959
0.1105	80.2699
0.1127	81.9734
0.1144	83.4332
0.1168	85.049
0.1182	85.822
0.1193	86.8907
0.1214	88.1817
0.1236	89.8951
0.1253	91.0884
0.1268	92.232
0.1289	93.7417
0.1307	95.1535
0.1331	96.4158
0.1349	98.3726
0.1359	98.4565
0.1374	100.0758
0.1396	101.5697
0.1421	103.125
0.1432	104.2522
0.1447	104.8641
0.1472	106.9753
0.149	108.1709
0.1516	110.2899
0.1526	110.6495
0.1537	111.5002
0.1555	112.8249
0.1582	114.6897
0.1598	115.9686
0.1613	116.8231
0.1631	118.5444
0.1652	119.5248
0.167	121.0242
0.1693	122.7198
0.1702	123.1896
0.1718	124.4636
0.1738	125.8342
0.1763	127.4065
0.1774	128.5134
0.179	129.3397
0.1814	131.4796
0.183	132.3504
0.1854	134.1412
0.1865	135.2542
0.1876	135.5647
0.1894	137.0048
0.1916	138.4309
0.1935	139.8017
0.195	141.0178
0.1969	142.3026
0.1988	143.7881
0.2004	144.8768
0.2027	146.2968
0.2037	147.201
0.2049	147.9111
0.2073	149.7033
0.2096	151.6612
0.2108	152.1618
0.2123	153.2723
0.2147	155.0063
0.2161	155.9864
0.2185	157.6776
0.22	158.3374
0.2211	159.4519
0.2227	160.4403
0.2252	162.1
0.2267	163.3194
0.228	164.2729
0.2301	165.7252
0.2318	166.8629
0.2336	168.5871
0.2359	169.8279
0.2366	170.2484
0.2379	171.0647
0.2398	172.5117
0.2422	174.4648
0.2434	175.176
0.2452	176.5105
0.2474	177.8368
0.2486	178.9119
0.251	180.862
0.2524	181.6579
0.2534	182.1352
0.255	183.0435
0.2574	185.2017
0.2591	186.3447
0.2604	187.1049
0.2623	188.5364
0.2641	189.9286
0.2659	191.1572
0.2683	193.0616
0.2691	193.4785
0.2703	194.127
0.2722	195.1484
0.2744	197.088
0.2758	198.1712
0.2773	199.0082
0.2795	200.7468
0.2808	201.7579
0.2832	203.233
0.2846	204.0324
0.2855	204.9597
0.287	205.9516
0.2896	207.4503
0.2913	208.9942
0.2925	209.7117
0.2943	210.8665
0.2961	212.2707
0.2979	213.3858
0.3001	214.9358
0.3008	215.4213
0.3021	216.1743
0.3041	217.8652
0.3063	219.1493
0.3073	219.8007
0.3091	220.9335
0.3111	222.7598
0.3124	223.6592
0.3147	225.3012
0.3163	226.401
0.3171	226.8311
0.3187	227.7316
0.321	229.5769
0.3228	230.9715
0.324	231.4034
0.3257	232.5176
0.3276	234.0149
0.3293	235.417
0.3317	236.8554
0.3325	237.1069
0.3336	237.8572
0.3355	239.4803
0.3379	241.1487
0.3391	242.3122
0.3406	243.1918
0.3426	243.8823
0.3439	244.7507
0.3461	246.8429
0.3477	248.1751
0.3484	248.3752
0.3501	249.1757
0.3522	251.0587
0.3538	252.1562
0.355	252.8637
0.3569	254.2358
0.3585	255.3373
0.3599	255.977
0.3627	258.2786
0.3633	258.7332
0.3645	259.7631
0.3664	260.4682
0.3684	261.7791
0.3697	262.7893
0.3712	264.3414
0.3733	265.3655
0.3745	266.3527
0.3768	267.8818
0.3785	268.5784
0.3794	269.1185
0.3809	270.4633
0.383	272.0858
0.3849	272.8791
0.386	273.5915
0.3879	275.111
0.3896	276.6601
0.3909	276.9384
0.3936	279.049
0.3944	279.3574
0.3955	280.332
0.3974	281.2297
0.3995	282.7208
0.401	283.8756
0.4023	284.9961
0.4045	285.7068
0.4056	286.8561
0.4076	288.4155
0.4095	289.3573
0.4103	289.8828
0.4117	291.2807
0.4138	292.6374
0.416	293.2883
0.417	293.8329
0.4187	295.1357
0.4207	297.1357
0.422	297.6896
0.4244	299.0652
0.4254	299.6785
0.4264	300.6559
0.4283	301.8308
0.4305	303.3603
0.4319	303.9389
0.4332	304.9585
0.4355	305.8547
0.4367	307.2296
0.4387	308.707
0.4407	309.9944
0.4415	309.9788
0.4429	310.4483
0.4451	312.605
0.4471	314.1434
0.4481	314.5027
0.4498	315.7417
0.4521	316.6374
0.4535	317.5699
0.4559	318.7432
0.4571	319.7991
0.4579	320.5947
0.46	321.9224
0.4622	322.4185
0.4636	324.1268
0.4651	324.8203
0.4672	326.4951
0.469	326.925
0.4709	328.0229
0.4728	329.3812
0.4735	329.9531
0.4749	330.4533
0.4771	332.3592
0.4792	333.5801
0.4802	334.0708
0.4817	334.7262
0.4842	336.4636
0.4856	337.3988
0.4882	338.7704
0.4891	338.9057
0.4902	339.6627
0.4919	340.7973
0.4944	342.6873
0.496	343.1086
0.4976	343.7629
0.4992	345.0203
0.5012	346.6888
0.5033	347.1111
0.5052	348.8919
0.5065	349.1971
0.5079	350.0651
0.5098	351.0324
0.5122	352.1802
0.5134	352.726
0.515	353.9316
0.5175	355.0812
0.5189	355.5873
0.5212	357.7637
0.5225	358.342
0.5236	358.9262
0.5254	359.5159
0.5278	360.7055
0.5296	361.758
0.5309	362.8234
0.5329	363.6607
0.5347	364.6501
0.5364	365.7755
0.5389	366.9684
0.54	367.1424
0.5413	367.8419
0.5435	369.1984
0.5458	370.7902
0.547	371.3721
0.5488	371.6944
0.5513	373.042
0.5528	374.0803
0.5553	375.6368
0.5567	376.0353
0.558	376.4418
0.5596	377.2007
0.5621	378.3107
0.5641	379.6031
0.5656	380.1526
0.5679	381.3957
0.5697	382.6171
0.5715	383.299
0.5742	384.1027
0.5751	384.2366
0.5768	384.9809
0.5789	386.4905
0.5814	388.1283
0.5829	388.3715
0.5847	388.6999
0.5873	390.2871
0.5886	390.7575
0.5914	392.2091
0.593	392.8673
0.5941	393.1296
0.596	393.9308
0.5987	395.0992
0.6005	395.9774
0.6021	396.4932
0.6044	397.3996
0.6066	398.7421
0.6087	399.6862
0.6113	400.5371
0.6123	400.579
0.6139	401.031
0.6163	402.0836
0.6191	403.485
0.6207	404.1091
0.6226	404.8581
0.6255	405.7078
0.627	406.0709
0.63	407.6378
0.632	408.1223
0.6333	408.5355
0.6354	409.0369
0.6382	410.4311
0.6405	411.2696
0.6422	411.6633
0.6446	412.5192
0.6471	413.1564
0.6493	414.0871
0.6524	415.5408
0.6537	415.534
0.6555	415.8246
0.658	416.7787
0.661	417.574
0.663	417.6956
0.6651	418.5403
0.668	420.0034
0.6701	420.2603
0.6734	421.348
0.6758	421.6871
0.6773	421.8716
0.6795	422.5466
0.6828	423.9816
0.6853	424.6295
0.6875	424.8757
0.6902	425.5956
0.6928	426.1009
0.6952	426.6234
0.699	427.8807
0.7008	427.8126
0.7028	428.0008
0.7058	428.9718
0.7091	429.799
0.7115	429.9991
0.7139	430.4396
0.7172	431.8176
0.7195	432.0082
0.7233	433.0875
0.7263	433.3401
0.7283	433.3062
0.731	433.5448
0.7346	434.6148
0.7377	435.1374
0.7401	435.2843
0.7436	436.2831
0.7466	436.8132
0.7495	437.0113
0.7539	438.0695
0.7561	437.9247
0.7585	438.0372
0.7618	438.6806
0.7657	439.196
0.7687	439.4358
0.7717	439.9238
0.7754	440.673
0.7783	440.713
0.7821	441.4753
0.7859	441.8087
0.7885	441.6298
0.7915	442.0484
0.7955	442.6638
0.7992	443.0697
0.8023	443.097
0.806	443.7295
0.8096	444.3441
0.8128	444.5956
0.8175	445.2656
0.8205	445.018
0.8235	445.0275
0.8273	445.5397
0.8316	446.1838
0.8348	446.1906
0.8384	446.382
0.8429	447.1762
0.8461	447.1131
0.8503	447.7322
0.8548	448.2933
0.8577	447.8473
0.8612	448.208
0.8653	448.8217
0.8698	449.2626
0.873	449.1023
0.8771	449.4216
0.8814	449.6975
0.885	449.7086
0.8898	450.2943
0.8933	450.0789
0.8968	449.9877
0.9007	450.3927
0.9053	450.8168
0.9093	450.7263
0.9129	450.7935
0.9175	451.256
0.9215	451.1855
0.9258	451.4454
0.9306	451.7121
0.9338	451.3632
0.9375	451.4651
0.9421	452.2604
0.9468	452.8415
0.9503	452.4343
0.9543	452.7589
0.9594	453.3131
0.9635	453.2698
0.9685	454.0523
0.9723	453.4577
0.9759	453.1985
0.9801	453.6895
0.9849	454.2695
0.9891	454.2468
0.9929	454.2172
0.9977	454.4593
1.0022	454.5021
1.0072	454.8468
1.0121	454.9221
1.0156	454.4431
1.0193	454.4718
1.024	455.1069
1.029	455.345
1.0326	455.1044
1.0368	455.1887
1.0422	455.6823
1.0464	455.6181
1.0519	456.397
1.0558	455.4926
1.0597	455.3604
1.0637	455.5356
1.069	456.6236
1.0734	456.3189
1.0776	456.1874
1.0821	456.6415
1.0868	456.9342
1.0917	457.1998
1.0966	457.3354
1.1002	456.7844
1.1042	456.8074
1.1089	457.287
1.1143	457.4538
1.1182	457.3477
1.1226	457.3558
1.1281	457.636
1.1324	457.4824
1.138	457.7235
1.142	457.5029
1.1459	457.3814
1.1502	457.4153
1.1554	457.7089
1.1601	457.7327
1.1645	457.6736
1.1695	457.848
1.1742	457.8527
1.1789	457.9705
1.1845	458.4418
1.1882	457.7019
1.1924	457.6835
1.1971	457.9866
1.2024	458.5421
1.2064	458.1059
1.2108	458.1378
1.2162	458.778
1.2204	458.4672
1.226	459.0753
1.2306	458.6547
1.2344	458.1868
1.239	458.4577
1.2442	458.9662
1.2493	459.0089
1.2534	458.7414
1.2583	459.0772
1.2631	459.1114
1.2678	459.1031
1.2733	459.6549
1.2771	458.8895
1.2815	458.7774
1.2864	459.1423
1.2919	459.5697
1.2962	459.176
1.3006	459.1955
1.306	459.774
1.3103	459.2794
1.316	459.8673
1.3209	459.6346
1.3247	459.1105
1.3292	459.1857
1.3345	459.8091
1.3396	459.8007
1.344	459.6048
1.3488	459.7848
1.3538	459.8197
1.3587	459.8413
1.3646	460.1685
1.3687	459.6873
1.3728	459.433
1.3776	459.7848
1.3831	459.9971
1.3873	459.8242
1.3919	459.8209
1.3975	460.112
1.4019	459.8583
1.4076	460.3453
1.4126	460.0148
1.4166	459.7656
1.4208	459.7767
1.4263	460.0897
1.4313	460.102
1.4356	459.909
1.4404	460.0024
1.4456	460.1241
1.4504	460.156
1.4563	460.6995
1.4605	459.9271
1.4645	459.849
1.4694	460.0151
1.4752	460.5656
1.4794	460.0728
1.484	460.074
1.4895	460.583
1.4941	460.1514
1.4998	460.7779
1.5049	460.4913
1.5088	459.9267
1.5131	459.9371
1.5185	460.4975
1.5238	460.583
1.5283	460.2066
1.5332	460.4753
1.5384	460.4772
1.543	460.4258
1.5492	461.2084
1.5532	460.2812
1.557	459.9749
1.5621	460.3646
1.5677	460.8423
1.5723	460.5172
1.577	460.4991
1.5826	460.7729
1.5868	460.3552
1.5922	461.017
1.5977	460.8936
1.6015	460.1604
1.6059	460.2525
1.6115	460.8297
1.617	460.8714
1.6211	460.5415
1.6263	460.6696
1.6311	460.7714
1.6358	460.6102
1.642	461.3859
1.6462	460.6044
1.6502	460.2196
1.6553	460.5803
1.661	461.0889
1.6653	460.6862
1.67	460.6453
1.6757	461.1305
1.68	460.6204
1.6854	461.176
1.6908	461.1693
1.6948	460.4246
1.6991	460.4645
1.7045	460.9057
1.71	461.1802
1.7142	460.6938
1.7194	460.9433
1.7243	460.9601
1.7288	460.7098
1.7351	461.4254
1.7395	460.7827
1.7435	460.4589
1.7485	460.7026
1.7539	461.2642
1.7586	460.8471
1.763	460.7707
1.7685	461.2518
1.7729	460.8058
1.778	461.1035
1.7837	461.3105
1.7876	460.5899
1.792	460.5861
1.7973	461.0294
1.8027	461.3521
1.8069	460.8176
1.812	461.0494
1.8175	461.2773
1.8219	461.037
1.8278	461.4032
1.8322	461.051
1.8365	460.5964
1.8414	460.8876
1.847	461.3539
1.8517	461.1611
1.8562	460.945
1.862	461.3904
1.8667	461.1918
1.8721	461.3285
1.8774	461.3593
1.8815	460.6948
1.8859	460.6358
1.8912	461.1893
1.8968	461.3649
1.9009	460.8355
1.9058	460.9101
1.9114	461.3784
1.9163	461.2103
1.9218	461.4181
1.9264	461.1017
1.9303	460.5974
1.9351	460.837
1.9409	461.3389
1.9456	461.12
1.9501	460.7782
1.9556	461.3366
1.9609	461.3145
1.9659	461.394
1.9713	461.3661
1.9753	460.7208
1.9798	460.635
1.985	461.1991
1.9907	461.3853
1.9949	460.9092
1.9995	460.8776
2.0052	461.4077
2.0101	461.3339
2.0162	461.4957
2.0205	461.1467
2.0247	460.659
2.0294	460.7307
2.0353	461.3907
2.0402	461.2369
2.0446	460.9598
2.0496	461.1961
2.0547	461.2951
2.0598	461.3585
2.0655	461.4134
2.0695	460.8993
2.0739	460.7472
2.0793	461.1995
2.085	461.4263
2.0893	461.0848
2.0939	461.0025
2.0997	461.4085
2.1044	461.3101
2.1103	461.4671
2.1148	461.1955
2.1188	460.6542
2.1235	460.7747
2.1291	461.3372
2.1343	461.3286
2.1387	461.1409
2.144	461.2979
2.149	461.2765
2.1539	461.3206
2.1598	461.4469
2.1638	460.9762
2.1682	460.7513
2.1731	461.178
2.179	461.4233
2.1833	461.1547
2.1881	461.0944
2.1938	461.4207
2.1985	461.2523
2.2042	461.4529
2.2092	461.3317
2.2132	460.7564
2.2179	460.9167
2.2233	461.3377
2.2282	461.3301
2.2328	461.0776
2.2379	461.3326
2.2432	461.3271
2.2481	461.3484
2.254	461.4688
2.258	460.9431
2.2623	460.7466
2.2677	461.2152
2.2733	461.4102
2.2777	461.2003
2.2825	461.1496
2.2882	461.4308
2.2924	461.1693
2.2984	461.4617
2.3032	461.3224
2.3072	460.7213
2.3118	460.81
2.3176	461.3661
2.3228	461.3704
2.3272	461.1458
2.3322	461.2975
2.3374	461.3212
2.3423	461.349
2.3484	461.5023
2.3527	461.0616
2.3569	460.7213
2.362	461.0925
2.3677	461.409
2.3721	461.156
2.3769	461.0802
2.3824	461.4152
2.3867	461.2155
2.3928	461.4623
2.398	461.3631
2.4018	460.7372
2.4063	460.6979
2.412	461.3513
2.4172	461.3607
2.4216	461.1278
2.4265	461.2501
2.4318	461.2909
2.4367	461.271
2.4427	461.4661
2.4469	460.9944
2.4512	460.6707
2.4561	461.0628
2.462	461.4115
2.4661	461.0785
2.4709	461.0344
2.4765	461.3878
2.4809	461.0815
2.4869	461.4371
2.492	461.3586
2.496	460.6794
2.5006	460.6795
2.5062	461.3165
2.5113	461.3304
2.5157	460.9561
2.5209	461.2132
2.5259	461.2155
2.5307	461.0858
2.5371	461.4725
2.541	460.9319
2.5453	460.5663
2.5503	460.8923
2.5562	461.3794
2.5609	461.1074
2.5655	461.0446
2.571	461.3273
2.5753	460.7286
2.5811	461.3551
2.5866	461.3048
2.5903	460.5657
2.5951	460.5833
2.6006	461.0914
2.6059	461.2086
2.6102	460.7057
2.6153	460.9346
2.6205	461.0318
2.6248	460.7315
2.6311	461.4221
2.6354	460.771
2.6399	460.4214
2.6447	460.6833
2.6505	461.2236
2.6551	460.7197
2.6598	460.6711
2.6655	461.1325
2.6698	460.6257
2.6755	461.139
2.6808	461.0969
2.685	460.3062
2.6893	460.2884
2.695	460.7112
2.7004	460.9947
2.7046	460.5693
2.7099	460.6868
2.7151	460.7021
2.7195	460.505
2.7258	461.303
2.7302	460.5171
2.7344	460.0732
2.7395	460.3564
2.7451	460.7982
2.7499	460.5078
2.7548	460.4016
2.7602	460.709
2.7649	460.3383
2.7702	460.5567
2.7758	460.706
2.7799	459.999
2.7844	459.9484
2.7898	460.2948
2.7952	460.6147
2.7995	460.0667
2.8047	460.1668
2.81	460.4018
2.8147	460.095
2.8208	460.621
2.8251	460.0847
2.8295	459.8506
2.8344	459.9662
2.84	460.3191
2.8446	460.0036
2.8493	459.8883
2.855	460.2754
2.8596	459.9718
2.8649	460.0756
2.8706	460.2034
2.8746	459.7979
2.8791	459.7532
2.8844	459.9
2.8901	460.0552
2.8943	459.8093
2.8991	459.8117
2.9048	459.9887
2.9095	459.8558
2.9151	460.1021
2.92	459.8238
2.9242	459.4352
2.9291	459.7008
2.9349	459.8611
2.9397	459.7668
2.9443	459.4597
2.9496	459.8212
2.9549	459.8091
2.9603	459.8581
2.9656	459.8052
2.9698	459.1255
2.9743	459.0178
2.9798	459.3772
2.9854	459.7616
2.9895	459.1335
2.9944	459.0982
3.0002	459.7121
3.0048	459.357
3.0111	459.837
3.0155	459.0881
3.0198	458.6359
3.0245	458.6957
3.0302	459.2409
3.0352	459.0444
3.0398	458.7704
3.0445	458.9244
3.0499	458.9816
3.055	459.0536
3.0607	459.157
3.065	458.4792
3.0693	458.3044
3.0743	458.6026
3.0801	459.0411
3.0845	458.4265
3.0893	458.3268
3.0951	458.8831
3.0999	458.5515
3.1061	458.9919
3.1106	458.2429
3.1148	457.7111
3.1194	457.7584
3.125	458.249
3.1302	458.1773
3.1347	457.8565
3.14	458.0613
3.1451	457.9499
3.1504	457.9493
3.1562	458.3339
3.1604	457.6389
3.1649	457.5538
3.17	457.662
3.1758	457.873
3.1803	457.6223
3.1848	457.5641
3.1907	457.6934
3.1951	457.5384
3.201	457.716
3.206	457.5435
3.2101	457.3419
3.2149	457.3679
3.2204	457.4745
3.2257	457.4459
3.2302	457.3669
3.2356	457.3963
3.2407	457.3817
3.2457	457.3674
3.2517	457.4733
3.2558	456.9225
3.2604	456.5435
3.2656	456.9586
3.2713	457.3395
3.2758	456.8316
3.2806	456.5999
3.2865	457.1873
3.2909	456.421
3.2969	457.1904
3.3019	456.5172
3.3061	455.6254
3.3108	455.6528
3.3165	456.2376
3.3217	456.1445
3.3263	455.6312
3.3313	455.818
3.3366	455.7651
3.3416	455.7206
3.3478	456.2802
3.3521	455.3094
3.3565	455.1288
3.3616	455.2837
3.3672	455.4889
3.3719	455.1967
3.3765	455.1047
3.3822	455.3716
3.387	455.0921
3.393	455.401
3.3984	455.0828
3.4024	454.4354
3.4071	454.4153
3.4127	454.7388
3.4182	454.7358
3.4227	454.4297
3.4277	454.434
3.4333	454.458
3.4384	454.4149
3.4447	454.6497
3.449	454.2132
3.4535	453.8968
3.4585	454.1116
3.4645	454.3381
3.4693	454.0143
3.474	453.8664
3.4799	454.1731
3.4847	453.5431
3.4906	454.1572
3.4959	453.6915
3.5002	452.9084
3.505	452.8202
3.5105	453.223
3.516	453.1964
3.5207	452.8174
3.526	452.9005
3.5313	452.8026
3.5362	452.6242
3.5428	453.13
3.5471	451.9087
3.5516	451.4614
3.5569	451.7599
3.5628	452.3134
3.5675	451.5858
3.5726	451.4877
3.5782	451.648
3.5826	451.2546
3.5887	451.6026
3.5947	451.4356
3.599	450.9119
3.6037	450.8132
3.6094	451.164
3.6151	451.1353
3.6198	450.7153
3.6251	450.7787
3.6306	450.7136
3.6354	450.5521
3.6419	451.0566
3.6469	450.374
3.6513	450.0108
3.6567	450.1919
3.6624	450.4247
3.6675	450.071
3.6727	449.9387
3.6784	450.1165
3.6833	449.6868
3.6891	449.9461
3.695	449.7801
3.6992	449.1937
3.7044	449.1456
3.7097	449.4107
3.7155	449.446
3.7203	449.0344
3.7258	449.0942
3.7311	448.9452
3.7359	448.7075
3.7425	449.1679
3.7472	448.4178
3.7516	447.7961
3.7567	448.1074
3.7628	448.5255
3.7678	447.8874
3.7729	447.6906
3.7785	447.873
3.7836	447.394
3.7889	447.4693
3.7951	447.5239
3.7996	446.4211
3.8043	446.3029
3.8101	446.5965
3.8159	446.7796
3.8204	446.1526
3.8257	446.1757
3.8316	446.2177
3.8368	445.8755
3.8429	446.1288
3.8482	445.5334
3.8527	445.0349
3.8579	445.1611
3.8637	445.466
3.8689	445.0565
3.8738	444.9743
3.8797	445.0695
3.885	444.9151
3.8906	444.9142
3.8966	444.8241
3.901	443.6635
3.9056	443.4548
3.9113	443.93
3.9173	444.0697
3.922	443.1836
3.927	443.122
3.9332	443.3882
3.9382	443.0074
3.9444	443.1144
3.9496	442.5464
3.9542	442.1891
3.9593	442.3036
3.9654	442.4713
3.9704	442.0726
3.9752	441.7256
3.9807	441.9819
3.9867	441.8305
3.9926	441.7364
3.9985	441.3708
4.0033	440.5674
4.0078	440.3065
4.0134	440.7752
4.0193	440.9741
4.0239	440.12
4.0289	440.0241
4.0351	440.3165
4.0402	439.9993
4.047	440.1398
4.0522	439.0176
4.0567	438.7698
4.0615	438.7799
4.0677	439.0334
4.0729	438.7898
4.0775	438.4907
4.0829	438.5038
4.0887	438.3878
4.0942	438.2591
4.1003	438.1562
4.1049	437.5032
4.1099	437.2527
4.1153	437.4478
4.1214	437.6003
4.1262	436.8802
4.1311	436.7877
4.1374	436.9591
4.1428	436.7143
4.1491	436.7636
4.1542	435.5082
4.1586	435.0926
4.1638	435.1079
4.1695	435.3465
4.1751	435.1408
4.1802	434.7085
4.1856	434.6249
4.1913	434.2238
4.1967	434.0939
4.2033	434.1039
4.2079	433.4072
4.2127	433.3047
4.2183	433.3743
4.2244	433.4272
4.2292	433.127
4.2345	432.9499
4.2407	433.1068
4.2458	432.317
4.252	432.5777
4.2578	431.9568
4.2624	430.9662
4.2674	430.9881
4.2731	431.212
4.2788	430.8653
4.2837	430.2874
4.2894	430.3033
4.2954	430.0479
4.3008	429.804
4.3074	429.8172
4.3121	428.9811
4.3168	428.6281
4.3221	428.9093
4.3282	429.0047
4.3332	428.1724
4.3385	427.9759
4.3448	428.1335
4.3499	427.4686
4.3565	427.8482
4.3623	426.905
4.367	426.239
4.372	426.2055
4.3779	426.463
4.3838	426.1563
4.3887	425.6935
4.3943	425.6454
4.4003	425.5093
4.4059	425.3951
4.4129	425.3786
4.4179	424.1332
4.4226	423.8767
4.4281	423.9614
4.434	424.031
4.4391	423.3972
4.4443	422.8633
4.4505	423.1208
4.4558	422.3318
4.4625	422.5039
4.4686	421.6242
4.4733	421.1399
4.478	421.0076
4.484	421.2804
4.4901	421.046
4.4951	420.3265
4.5007	420.1683
4.5066	419.9847
4.5124	419.5265
4.5195	419.4354
4.5243	417.9645
4.5291	417.6121
4.5344	417.6322
4.5407	417.8251
4.5461	417.3354
4.5517	417.1584
4.5578	417.1826
4.563	416.5614
4.5697	416.7104
4.5764	415.9174
4.5811	415.0402
4.5862	414.6299
4.5923	415.3871
4.5983	414.4954
4.6035	414.0165
4.6093	413.8809
4.6153	413.3009
4.621	412.9846
4.6285	413.0276
4.6337	411.8261
4.6383	411.4723
4.6438	411.5881
4.6505	411.6502
4.6561	410.7485
4.6617	410.4146
4.668	410.262
4.6732	409.186
4.68	409.3531
4.6868	408.8627
4.6916	407.941
4.6966	407.8818
4.7027	407.9801
4.7092	407.491
4.7146	406.6354
4.7206	406.2469
4.7268	405.7988
4.7321	405.3231
4.7398	405.4031
4.7454	404.4332
4.7505	403.6832
4.7558	403.8079
4.7624	403.7704
4.7683	402.7057
4.774	402.1438
4.7805	401.9626
4.7862	400.9734
4.793	400.9052
4.8002	400.4075
4.8054	399.6162
4.8104	399.4413
4.8165	399.4794
4.8234	398.9652
4.8291	397.3817
4.8356	396.8091
4.8426	396.3563
4.8487	395.3779
4.8573	394.8226

